	Time [s]	Theta 1 (Bottom Pendulum) (Relative Rotation X) [°]	
1	0.	1.6614e-016	
2	2.1903e-004	7.1933e-008	
3	4.6237e-004	1.4255e-006	
4	7.2444e-004	8.5583e-006	
5	1.0005e-003	3.0961e-005	
6	1.2867e-003	8.4059e-005	
7	1.5801e-003	1.8933e-004	
8	1.8786e-003	3.7379e-004	
9	2.1807e-003	6.6909e-004	
10	2.4854e-003	1.1105e-003	
11	2.7923e-003	1.7363e-003	
12	3.103e-003	2.5925e-003	
13	3.4196e-003	3.7335e-003	
14	3.7436e-003	5.2209e-003	
15	4.0765e-003	7.1233e-003	
16	4.4196e-003	9.517e-003	
17	4.7746e-003	1.2486e-002	
18	5.1434e-003	1.6126e-002	
19	5.5287e-003	2.0545e-002	
20	5.9348e-003	2.5879e-002	
21	6.3682e-003	3.2311e-002	
22	6.8425e-003	4.0158e-002	
23	7.4002e-003	5.0321e-002	
24	8.0225e-003	6.259e-002	
25	8.3337e-003	6.8978e-002	
26	8.6813e-003	7.6231e-002	
27	9.0525e-003	8.4029e-002	
28	9.4371e-003	9.2069e-002	
29	9.8277e-003	0.10008	
30	1.0219e-002	0.10786	
31	1.0415e-002	0.11162	
32	1.0649e-002	0.11596	
33	1.0913e-002	0.12067	
34	1.1201e-002	0.12553	
35	1.1507e-002	0.13032	
36	1.1826e-002	0.13488	
37	1.2155e-002	0.13907	
38	1.249e-002	0.14277	
39	1.283e-002	0.14588	
40	1.3174e-002	0.14834	
41	1.3519e-002	0.15009	
42	1.3866e-002	0.1511	
43	1.4214e-002	0.15133	
44	1.4564e-002	0.15077	
45	1.4915e-002	0.14941	
46	1.5267e-002	0.14724	
47	1.562e-002	0.14426	
48	1.5975e-002	0.14049	
49	1.6333e-002	0.13594	
50	1.6693e-002	0.13063	
51	1.7056e-002	0.12458	
52	1.7423e-002	0.11783	
53	1.7793e-002	0.11041	
54	1.8169e-002	0.10238	
55	1.855e-002	9.3794e-002	
56	1.8938e-002	8.4712e-002	
57	1.9334e-002	7.5209e-002	
58	1.9739e-002	6.5368e-002	
59	2.0154e-002	5.5281e-002	
60	2.0582e-002	4.505e-002	
61	2.1026e-002	3.4785e-002	
62	2.1488e-002	2.4607e-002	
63	2.1974e-002	1.4636e-002	
64	2.2491e-002	4.9915e-003	
65	2.3052e-002	-4.2078e-003	
66	2.3681e-002	-1.2903e-002	
67	2.4443e-002	-2.1194e-002	
68	2.5256e-002	-2.7664e-002	
69	2.5663e-002	-3.0146e-002	
70	2.6097e-002	-3.2362e-002	
71	2.6545e-002	-3.4304e-002	
72	2.6999e-002	-3.6022e-002	
73	2.7226e-002	-3.6821e-002	
74	2.7495e-002	-3.7737e-002	
75	2.7798e-002	-3.8747e-002	
76	2.8126e-002	-3.9838e-002	
77	2.8472e-002	-4.1004e-002	
78	2.883e-002	-4.2233e-002	
79	2.9196e-002	-4.3511e-002	
80	2.9566e-002	-4.4811e-002	
81	2.9939e-002	-4.6093e-002	
82	3.0311e-002	-4.7311e-002	
83	3.0497e-002	-4.7879e-002	
84	3.0722e-002	-4.8515e-002	
85	3.0979e-002	-4.916e-002	
86	3.1263e-002	-4.9743e-002	
87	3.1567e-002	-5.0188e-002	
88	3.1889e-002	-5.0414e-002	
89	3.2224e-002	-5.0341e-002	
90	3.2571e-002	-4.9888e-002	
91	3.293e-002	-4.8971e-002	
92	3.33e-002	-4.751e-002	
93	3.3682e-002	-4.542e-002	
94	3.4079e-002	-4.2607e-002	
95	3.4494e-002	-3.8961e-002	
96	3.4935e-002	-3.4328e-002	
97	3.5416e-002	-2.8448e-002	
98	3.598e-002	-2.0575e-002	
99	3.6607e-002	-1.0884e-002	
100	3.692e-002	-5.7722e-003	
101	3.7269e-002	5.57e-005	
102	3.7642e-002	6.3394e-003	
103	3.8028e-002	1.2821e-002	
104	3.842e-002	1.9272e-002	
105	3.8812e-002	2.55e-002	
106	3.9009e-002	2.8491e-002	
107	3.9243e-002	3.193e-002	
108	3.9508e-002	3.5626e-002	
109	3.9797e-002	3.9388e-002	
110	4.0104e-002	4.3041e-002	
111	4.0425e-002	4.6431e-002	
112	4.0755e-002	4.9432e-002	
113	4.1092e-002	5.1939e-002	
114	4.1433e-002	5.387e-002	
115	4.1778e-002	5.5162e-002	
116	4.2125e-002	5.5766e-002	
117	4.2474e-002	5.5648e-002	
118	4.2824e-002	5.4781e-002	
119	4.3175e-002	5.315e-002	
120	4.3528e-002	5.0744e-002	
121	4.3882e-002	4.7561e-002	
122	4.4237e-002	4.3604e-002	
123	4.4595e-002	3.8884e-002	
124	4.4954e-002	3.3414e-002	
125	4.5317e-002	2.7216e-002	
126	4.5682e-002	2.0318e-002	
127	4.6052e-002	1.2755e-002	
128	4.6425e-002	4.5674e-003	
129	4.6804e-002	-4.1949e-003	
130	4.7188e-002	-1.3475e-002	
131	4.758e-002	-2.3206e-002	
132	4.7979e-002	-3.3315e-002	
133	4.8388e-002	-4.3718e-002	
134	4.8808e-002	-5.4322e-002	
135	4.9241e-002	-6.5027e-002	
136	4.9691e-002	-7.5725e-002	
137	5.016e-002	-8.6301e-002	
138	5.0655e-002	-9.6639e-002	
139	5.1183e-002	-0.10663	
140	5.1758e-002	-0.1162	
141	5.2412e-002	-0.12539	
142	5.3198e-002	-0.1342	
143	5.4011e-002	-0.1412	
144	5.4418e-002	-0.14409	
145	5.4848e-002	-0.14686	
146	5.5292e-002	-0.14949	
147	5.574e-002	-0.15205	
148	5.5964e-002	-0.15333	
149	5.6229e-002	-0.15485	
150	5.6528e-002	-0.15661	
151	5.6852e-002	-0.15857	
152	5.7194e-002	-0.16072	
153	5.7549e-002	-0.16305	
154	5.7911e-002	-0.16551	
155	5.8278e-002	-0.16808	
156	5.8647e-002	-0.1707	
157	5.9018e-002	-0.17332	
158	5.9388e-002	-0.17587	
159	5.9573e-002	-0.1771	
160	5.9797e-002	-0.17854	
161	6.0055e-002	-0.18009	
162	6.0339e-002	-0.18166	
163	6.0646e-002	-0.18314	
164	6.097e-002	-0.18445	
165	6.1311e-002	-0.18547	
166	6.1666e-002	-0.18611	
167	6.2035e-002	-0.18629	
168	6.2419e-002	-0.18591	
169	6.282e-002	-0.18489	
170	6.3244e-002	-0.1831	
171	6.3698e-002	-0.1804	
172	6.4204e-002	-0.17652	
173	6.4868e-002	-0.17024	
174	6.5203e-002	-0.16666	
175	6.5577e-002	-0.16242	
176	6.5974e-002	-0.15775	
177	6.6382e-002	-0.15284	
178	6.6793e-002	-0.14793	
179	6.6999e-002	-0.14552	
180	6.7244e-002	-0.14272	
181	6.7519e-002	-0.13967	
182	6.7819e-002	-0.13654	
183	6.8137e-002	-0.13346	
184	6.8467e-002	-0.13058	
185	6.8805e-002	-0.12802	
186	6.915e-002	-0.12586	
187	6.9498e-002	-0.12418	
188	6.9848e-002	-0.12306	
189	7.0199e-002	-0.12253	
190	7.0552e-002	-0.12264	
191	7.0905e-002	-0.12341	
192	7.1258e-002	-0.12487	
193	7.1611e-002	-0.12702	
194	7.1966e-002	-0.12988	
195	7.2321e-002	-0.13345	
196	7.2677e-002	-0.13772	
197	7.3035e-002	-0.14269	
198	7.3395e-002	-0.14834	
199	7.3758e-002	-0.15465	
200	7.4123e-002	-0.16159	
201	7.4491e-002	-0.16914	
202	7.4864e-002	-0.17725	
203	7.5242e-002	-0.18587	
204	7.5625e-002	-0.19496	
205	7.6014e-002	-0.20444	
206	7.6412e-002	-0.21426	
207	7.6818e-002	-0.22432	
208	7.7235e-002	-0.23454	
209	7.7664e-002	-0.24483	
210	7.8109e-002	-0.25508	
211	7.8572e-002	-0.26518	
212	7.9058e-002	-0.27502	
213	7.9575e-002	-0.28451	
214	8.0134e-002	-0.29355	
215	8.0759e-002	-0.30215	
216	8.1511e-002	-0.31056	
217	8.2322e-002	-0.31767	
218	8.2728e-002	-0.32067	
219	8.3161e-002	-0.32361	
220	8.3611e-002	-0.32652	
221	8.4066e-002	-0.32945	
222	8.4294e-002	-0.33094	
223	8.4565e-002	-0.33277	
224	8.4868e-002	-0.33492	
225	8.5198e-002	-0.33739	
226	8.5546e-002	-0.34016	
227	8.5906e-002	-0.34324	
228	8.6274e-002	-0.34659	
229	8.6645e-002	-0.35019	
230	8.7019e-002	-0.35398	
231	8.7393e-002	-0.35789	
232	8.758e-002	-0.35988	
233	8.7805e-002	-0.3623	
234	8.8063e-002	-0.36505	
235	8.8347e-002	-0.36806	
236	8.8652e-002	-0.37121	
237	8.8974e-002	-0.3744	
238	8.931e-002	-0.37754	
239	8.9657e-002	-0.38052	
240	9.0016e-002	-0.38325	
241	9.0386e-002	-0.38565	
242	9.0768e-002	-0.38763	
243	9.1164e-002	-0.38911	
244	9.1578e-002	-0.39001	
245	9.2017e-002	-0.39024	
246	9.2494e-002	-0.38966	
247	9.3048e-002	-0.388	
248	9.3675e-002	-0.38501	
249	9.3988e-002	-0.38317	
250	9.4339e-002	-0.3809	
251	9.4714e-002	-0.37831	
252	9.5103e-002	-0.37552	
253	9.5497e-002	-0.37267	
254	9.5893e-002	-0.3699	
255	9.6091e-002	-0.36858	
256	9.6326e-002	-0.36708	
257	9.6593e-002	-0.3655	
258	9.6883e-002	-0.36396	
259	9.7192e-002	-0.36256	
260	9.7514e-002	-0.36139	
261	9.7845e-002	-0.36056	
262	9.8183e-002	-0.36011	
263	9.8526e-002	-0.36013	
264	9.8872e-002	-0.36065	
265	9.922e-002	-0.36171	
266	9.957e-002	-0.36333	
267	9.9921e-002	-0.36555	
268	0.10027	-0.36836	
269	0.10063	-0.37179	
270	0.10098	-0.37582	
271	0.10134	-0.38046	
272	0.1017	-0.38569	
273	0.10206	-0.3915	
274	0.10242	-0.39786	
275	0.10279	-0.40475	
276	0.10316	-0.41213	
277	0.10353	-0.41996	
278	0.10391	-0.42819	
279	0.10429	-0.43676	
280	0.10469	-0.4456	
281	0.10509	-0.45464	
282	0.1055	-0.4638	
283	0.10592	-0.47299	
284	0.10635	-0.48211	
285	0.1068	-0.49106	
286	0.10727	-0.49973	
287	0.10777	-0.508	
288	0.10829	-0.51579	
289	0.10887	-0.52301	
290	0.10952	-0.5297	
291	0.11031	-0.53592	
292	0.11112	-0.54089	
293	0.11153	-0.54307	
294	0.11196	-0.54533	
295	0.1124	-0.54775	
296	0.11285	-0.55042	
297	0.11308	-0.55188	
298	0.11334	-0.55373	
299	0.11364	-0.55601	
300	0.11397	-0.55872	
301	0.11431	-0.56188	
302	0.11466	-0.56547	
303	0.11503	-0.56948	
304	0.11539	-0.57385	
305	0.11576	-0.57853	
306	0.11614	-0.58345	
307	0.11651	-0.58853	
308	0.11669	-0.5911	
309	0.11692	-0.59424	
310	0.11717	-0.59783	
311	0.11746	-0.60176	
312	0.11777	-0.60591	
313	0.11809	-0.61016	
314	0.11843	-0.61438	
315	0.11879	-0.61848	
316	0.11916	-0.62235	
317	0.11954	-0.6259	
318	0.11995	-0.62905	
319	0.12037	-0.63171	
320	0.12083	-0.63381	
321	0.12133	-0.63525	
322	0.122	-0.63582	
323	0.12233	-0.63561	
324	0.12271	-0.63506	
325	0.1231	-0.63417	
326	0.12351	-0.63302	
327	0.12392	-0.63172	
328	0.12413	-0.63105	
329	0.12437	-0.63025	
330	0.12465	-0.62938	
331	0.12495	-0.62851	
332	0.12527	-0.6277	
333	0.1256	-0.62704	
334	0.12594	-0.62658	
335	0.12628	-0.62641	
336	0.12663	-0.62656	
337	0.12698	-0.62709	
338	0.12734	-0.62804	
339	0.12769	-0.62944	
340	0.12804	-0.6313	
341	0.1284	-0.63365	
342	0.12875	-0.6365	
343	0.12911	-0.63985	
344	0.12946	-0.64371	
345	0.12982	-0.64806	
346	0.13018	-0.6529	
347	0.13054	-0.65822	
348	0.1309	-0.66398	
349	0.13127	-0.67016	
350	0.13164	-0.67672	
351	0.13201	-0.68363	
352	0.13239	-0.69083	
353	0.13278	-0.69827	
354	0.13317	-0.70588	
355	0.13357	-0.71358	
356	0.13397	-0.72129	
357	0.13439	-0.72893	
358	0.13482	-0.73639	
359	0.13527	-0.74357	
360	0.13574	-0.75036	
361	0.13623	-0.75665	
362	0.13675	-0.76231	
363	0.13732	-0.76727	
364	0.13795	-0.77147	
365	0.13872	-0.77494	
366	0.13953	-0.77737	
367	0.13994	-0.7784	
368	0.14037	-0.77953	
369	0.14082	-0.7809	
370	0.14128	-0.78266	
371	0.1415	-0.78373	
372	0.14177	-0.78517	
373	0.14207	-0.78707	
374	0.1424	-0.78946	
375	0.14275	-0.7924	
376	0.14311	-0.79591	
377	0.14347	-0.79996	
378	0.14384	-0.80452	
379	0.14422	-0.80954	
380	0.14459	-0.81495	
381	0.14478	-0.81777	
382	0.145	-0.82127	
383	0.14526	-0.82537	
384	0.14555	-0.82997	
385	0.14585	-0.83497	
386	0.14617	-0.84025	
387	0.14651	-0.8457	
388	0.14686	-0.85121	
389	0.14722	-0.85667	
390	0.14759	-0.86199	
391	0.14798	-0.86708	
392	0.14838	-0.87187	
393	0.1488	-0.87628	
394	0.14924	-0.88026	
395	0.14973	-0.88377	
396	0.15032	-0.88683	
397	0.15096	-0.88886	
398	0.15127	-0.88944	
399	0.15162	-0.88982	
400	0.152	-0.88996	
401	0.15238	-0.88989	
402	0.15277	-0.88969	
403	0.15316	-0.88941	
404	0.15336	-0.88928	
405	0.15359	-0.88914	
406	0.15386	-0.88902	
407	0.15414	-0.88898	
408	0.15445	-0.88905	
409	0.15477	-0.88929	
410	0.1551	-0.88974	
411	0.15544	-0.89047	
412	0.15578	-0.89149	
413	0.15613	-0.89285	
414	0.15648	-0.89457	
415	0.15683	-0.89668	
416	0.15718	-0.89917	
417	0.15753	-0.90208	
418	0.15788	-0.90538	
419	0.15824	-0.90909	
420	0.1586	-0.91319	
421	0.15896	-0.91767	
422	0.15932	-0.92251	
423	0.15969	-0.92767	
424	0.16005	-0.93312	
425	0.16043	-0.93883	
426	0.1608	-0.94474	
427	0.16119	-0.9508	
428	0.16158	-0.95694	
429	0.16197	-0.96309	
430	0.16238	-0.96917	
431	0.16279	-0.97508	
432	0.16322	-0.98073	
433	0.16366	-0.98602	
434	0.16412	-0.99082	
435	0.1646	-0.99502	
436	0.16511	-0.99849	
437	0.16566	-1.0011	
438	0.16626	-1.0028	
439	0.16697	-1.0033	
440	0.16777	-1.0027	
441	0.16817	-1.0023	
442	0.1686	-1.0018	
443	0.16905	-1.0015	
444	0.16951	-1.0016	
445	0.16997	-1.0023	
446	0.1702	-1.003	
447	0.17048	-1.004	
448	0.17078	-1.0054	
449	0.17111	-1.0075	
450	0.17145	-1.0101	
451	0.17181	-1.0135	
452	0.17218	-1.0174	
453	0.17255	-1.022	
454	0.17292	-1.0271	
455	0.17329	-1.0327	
456	0.17348	-1.0356	
457	0.1737	-1.0393	
458	0.17396	-1.0436	
459	0.17424	-1.0485	
460	0.17455	-1.0538	
461	0.17487	-1.0595	
462	0.17521	-1.0654	
463	0.17556	-1.0714	
464	0.17592	-1.0774	
465	0.1763	-1.0833	
466	0.17669	-1.0891	
467	0.1771	-1.0945	
468	0.17752	-1.0997	
469	0.17799	-1.1044	
470	0.1785	-1.1088	
471	0.17917	-1.113	
472	0.1795	-1.1146	
473	0.17987	-1.1159	
474	0.18027	-1.117	
475	0.18067	-1.1177	
476	0.18108	-1.1181	
477	0.18129	-1.1182	
478	0.18153	-1.1183	
479	0.18181	-1.1184	
480	0.18211	-1.1185	
481	0.18243	-1.1185	
482	0.18276	-1.1187	
483	0.18309	-1.1189	
484	0.18344	-1.1192	
485	0.18379	-1.1198	
486	0.18414	-1.1206	
487	0.18449	-1.1216	
488	0.18485	-1.1229	
489	0.1852	-1.1245	
490	0.18556	-1.1264	
491	0.18591	-1.1287	
492	0.18627	-1.1313	
493	0.18662	-1.1341	
494	0.18698	-1.1374	
495	0.18734	-1.1409	
496	0.1877	-1.1447	
497	0.18807	-1.1487	
498	0.18844	-1.153	
499	0.18881	-1.1575	
500	0.18918	-1.1621	
501	0.18956	-1.1668	
502	0.18995	-1.1715	
503	0.19034	-1.1762	
504	0.19074	-1.1808	
505	0.19115	-1.1851	
506	0.19157	-1.1891	
507	0.19201	-1.1927	
508	0.19246	-1.1957	
509	0.19293	-1.1981	
510	0.19343	-1.1997	
511	0.19395	-1.2003	
512	0.19453	-1.1998	
513	0.19518	-1.198	
514	0.19596	-1.1946	
515	0.19677	-1.1905	
516	0.19718	-1.1886	
517	0.19761	-1.1868	
518	0.19805	-1.1855	
519	0.1985	-1.1848	
520	0.19873	-1.1847	
521	0.199	-1.185	
522	0.1993	-1.1856	
523	0.19962	-1.1868	
524	0.19997	-1.1886	
525	0.20032	-1.1912	
526	0.20069	-1.1944	
527	0.20106	-1.1984	
528	0.20143	-1.2029	
529	0.2018	-1.208	
530	0.20217	-1.2136	
531	0.20236	-1.2165	
532	0.20258	-1.2202	
533	0.20284	-1.2245	
534	0.20313	-1.2294	
535	0.20343	-1.2347	
536	0.20376	-1.2403	
537	0.2041	-1.2461	
538	0.20446	-1.252	
539	0.20483	-1.2578	
540	0.20521	-1.2636	
541	0.20562	-1.2691	
542	0.20604	-1.2743	
543	0.2065	-1.2792	
544	0.20701	-1.2837	
545	0.20767	-1.2881	
546	0.208	-1.2897	
547	0.20837	-1.2911	
548	0.20877	-1.2922	
549	0.20918	-1.2929	
550	0.20959	-1.2932	
551	0.2098	-1.2933	
552	0.21005	-1.2933	
553	0.21032	-1.2933	
554	0.21062	-1.2932	
555	0.21094	-1.293	
556	0.21127	-1.2929	
557	0.21162	-1.2928	
558	0.21196	-1.2928	
559	0.21231	-1.293	
560	0.21266	-1.2933	
561	0.21302	-1.2938	
562	0.21337	-1.2946	
563	0.21373	-1.2956	
564	0.21408	-1.2969	
565	0.21444	-1.2985	
566	0.21479	-1.3003	
567	0.21515	-1.3025	
568	0.21551	-1.3049	
569	0.21587	-1.3075	
570	0.21623	-1.3104	
571	0.21659	-1.3135	
572	0.21696	-1.3168	
573	0.21733	-1.3203	
574	0.21771	-1.3238	
575	0.21809	-1.3274	
576	0.21847	-1.3309	
577	0.21887	-1.3343	
578	0.21927	-1.3376	
579	0.21968	-1.3406	
580	0.2201	-1.3432	
581	0.22053	-1.3453	
582	0.22098	-1.3468	
583	0.22145	-1.3476	
584	0.22194	-1.3474	
585	0.22247	-1.3463	
586	0.22304	-1.3438	
587	0.22368	-1.3399	
588	0.22446	-1.3339	
589	0.22527	-1.3271	
590	0.22567	-1.3238	
591	0.22611	-1.3207	
592	0.22655	-1.3179	
593	0.227	-1.3158	
594	0.22723	-1.3151	
595	0.2275	-1.3145	
596	0.2278	-1.3143	
597	0.22813	-1.3146	
598	0.22847	-1.3154	
599	0.22883	-1.317	
600	0.2292	-1.3194	
601	0.22957	-1.3224	
602	0.22994	-1.3261	
603	0.23031	-1.3304	
604	0.2305	-1.3327	
605	0.23073	-1.3357	
606	0.23098	-1.3393	
607	0.23127	-1.3434	
608	0.23157	-1.348	
609	0.2319	-1.353	
610	0.23224	-1.3582	
611	0.23259	-1.3636	
612	0.23295	-1.369	
613	0.23332	-1.3743	
614	0.23371	-1.3795	
615	0.23411	-1.3845	
616	0.23453	-1.3891	
617	0.23499	-1.3933	
618	0.23548	-1.3971	
619	0.2361	-1.4004	
620	0.23675	-1.4025	
621	0.23708	-1.403	
622	0.23743	-1.4032	
623	0.2378	-1.4031	
624	0.23819	-1.4028	
625	0.23858	-1.4022	
626	0.23897	-1.4014	
627	0.23916	-1.401	
628	0.2394	-1.4005	
629	0.23966	-1.3999	
630	0.23995	-1.3992	
631	0.24025	-1.3986	
632	0.24057	-1.3981	
633	0.2409	-1.3976	
634	0.24124	-1.3973	
635	0.24158	-1.3971	
636	0.24193	-1.3972	
637	0.24228	-1.3975	
638	0.24263	-1.3981	
639	0.24298	-1.3989	
640	0.24333	-1.4001	
641	0.24369	-1.4015	
642	0.24404	-1.4031	
643	0.2444	-1.405	
644	0.24476	-1.4072	
645	0.24513	-1.4095	
646	0.24549	-1.412	
647	0.24586	-1.4147	
648	0.24624	-1.4174	
649	0.24662	-1.4202	
650	0.247	-1.423	
651	0.24739	-1.4256	
652	0.24779	-1.428	
653	0.2482	-1.4302	
654	0.24862	-1.432	
655	0.24906	-1.4332	
656	0.2495	-1.4339	
657	0.24997	-1.4337	
658	0.25046	-1.4327	
659	0.25099	-1.4303	
660	0.25155	-1.4268	
661	0.25219	-1.4216	
662	0.25295	-1.4142	
663	0.25376	-1.4057	
664	0.25417	-1.4015	
665	0.2546	-1.3974	
666	0.25505	-1.3935	
667	0.2555	-1.3903	
668	0.25573	-1.389	
669	0.256	-1.3877	
670	0.2563	-1.3867	
671	0.25663	-1.3861	
672	0.25698	-1.386	
673	0.25734	-1.3867	
674	0.2577	-1.388	
675	0.25808	-1.39	
676	0.25845	-1.3926	
677	0.25882	-1.3959	
678	0.25901	-1.3977	
679	0.25924	-1.4	
680	0.25949	-1.4029	
681	0.25978	-1.4062	
682	0.26009	-1.4099	
683	0.26041	-1.4139	
684	0.26075	-1.4182	
685	0.2611	-1.4225	
686	0.26146	-1.4269	
687	0.26183	-1.4311	
688	0.26222	-1.4352	
689	0.26262	-1.439	
690	0.26304	-1.4424	
691	0.26348	-1.4453	
692	0.26397	-1.4476	
693	0.26457	-1.4492	
694	0.2652	-1.4495	
695	0.26552	-1.4492	
696	0.26587	-1.4485	
697	0.26624	-1.4475	
698	0.26663	-1.4461	
699	0.26702	-1.4445	
700	0.26741	-1.4427	
701	0.26761	-1.4417	
702	0.26784	-1.4406	
703	0.26811	-1.4393	
704	0.26839	-1.438	
705	0.2687	-1.4366	
706	0.26902	-1.4352	
707	0.26935	-1.4339	
708	0.26969	-1.4328	
709	0.27003	-1.4318	
710	0.27038	-1.4311	
711	0.27073	-1.4307	
712	0.27108	-1.4305	
713	0.27143	-1.4306	
714	0.27178	-1.4311	
715	0.27214	-1.4318	
716	0.2725	-1.4328	
717	0.27285	-1.4341	
718	0.27321	-1.4357	
719	0.27358	-1.4376	
720	0.27394	-1.4396	
721	0.27431	-1.4419	
722	0.27469	-1.4443	
723	0.27506	-1.4467	
724	0.27545	-1.4492	
725	0.27584	-1.4516	
726	0.27623	-1.4539	
727	0.27664	-1.456	
728	0.27706	-1.4577	
729	0.27748	-1.459	
730	0.27793	-1.4597	
731	0.27839	-1.4597	
732	0.27887	-1.4588	
733	0.27938	-1.4569	
734	0.27994	-1.4537	
735	0.28055	-1.449	
736	0.28127	-1.4421	
737	0.28207	-1.4335	
738	0.28246	-1.429	
739	0.2829	-1.4244	
740	0.28335	-1.4198	
741	0.28381	-1.4156	
742	0.28427	-1.4121	
743	0.2845	-1.4107	
744	0.28477	-1.4093	
745	0.28507	-1.4081	
746	0.2854	-1.4073	
747	0.28574	-1.4069	
748	0.2861	-1.4072	
749	0.28646	-1.4081	
750	0.28683	-1.4095	
751	0.2872	-1.4115	
752	0.28757	-1.414	
753	0.28795	-1.4169	
754	0.28832	-1.42	
755	0.28869	-1.4234	
756	0.28906	-1.4268	
757	0.28944	-1.4302	
758	0.28982	-1.4336	
759	0.2902	-1.4367	
760	0.29059	-1.4396	
761	0.29099	-1.4421	
762	0.29141	-1.4442	
763	0.29185	-1.4457	
764	0.29232	-1.4464	
765	0.29286	-1.4463	
766	0.2935	-1.4449	
767	0.29382	-1.4436	
768	0.29418	-1.4419	
769	0.29456	-1.4397	
770	0.29496	-1.4371	
771	0.29536	-1.4342	
772	0.29576	-1.4312	
773	0.29596	-1.4297	
774	0.2962	-1.4278	
775	0.29647	-1.4257	
776	0.29677	-1.4235	
777	0.29708	-1.4213	
778	0.2974	-1.419	
779	0.29773	-1.4169	
780	0.29807	-1.4149	
781	0.29842	-1.4131	
782	0.29877	-1.4117	
783	0.29912	-1.4105	
784	0.29947	-1.4096	
785	0.29982	-1.4091	
786	0.30017	-1.409	
787	0.30053	-1.4092	
788	0.30088	-1.4099	
789	0.30124	-1.4108	
790	0.3016	-1.4121	
791	0.30196	-1.4138	
792	0.30233	-1.4157	
793	0.30269	-1.4179	
794	0.30307	-1.4204	
795	0.30344	-1.423	
796	0.30382	-1.4257	
797	0.30421	-1.4285	
798	0.3046	-1.4312	
799	0.305	-1.4339	
800	0.30541	-1.4363	
801	0.30583	-1.4384	
802	0.30627	-1.4401	
803	0.30672	-1.4412	
804	0.30719	-1.4415	
805	0.30769	-1.441	
806	0.30822	-1.4394	
807	0.3088	-1.4364	
808	0.30946	-1.4317	
809	0.31024	-1.4247	
810	0.31105	-1.4166	
811	0.31145	-1.4126	
812	0.31188	-1.4085	
813	0.31232	-1.4046	
814	0.31277	-1.4011	
815	0.31299	-1.3996	
816	0.31326	-1.3981	
817	0.31356	-1.3966	
818	0.31388	-1.3955	
819	0.31423	-1.3947	
820	0.31458	-1.3944	
821	0.31495	-1.3946	
822	0.31531	-1.3953	
823	0.31568	-1.3965	
824	0.31606	-1.3981	
825	0.31643	-1.4	
826	0.31661	-1.401	
827	0.31684	-1.4023	
828	0.3171	-1.4039	
829	0.31738	-1.4057	
830	0.31769	-1.4076	
831	0.31802	-1.4095	
832	0.31836	-1.4113	
833	0.31872	-1.413	
834	0.31909	-1.4145	
835	0.31947	-1.4155	
836	0.31987	-1.4161	
837	0.3203	-1.4161	
838	0.32076	-1.4153	
839	0.32127	-1.4135	
840	0.32194	-1.4097	
841	0.32228	-1.4073	
842	0.32265	-1.4042	
843	0.32305	-1.4006	
844	0.32346	-1.3967	
845	0.32387	-1.3925	
846	0.32408	-1.3903	
847	0.32432	-1.3878	
848	0.3246	-1.3849	
849	0.3249	-1.3818	
850	0.32521	-1.3786	
851	0.32554	-1.3754	
852	0.32588	-1.3723	
853	0.32623	-1.3694	
854	0.32658	-1.3667	
855	0.32693	-1.3643	
856	0.32728	-1.3624	
857	0.32764	-1.3608	
858	0.32799	-1.3596	
859	0.32834	-1.3588	
860	0.3287	-1.3586	
861	0.32905	-1.3587	
862	0.32941	-1.3593	
863	0.32977	-1.3604	
864	0.33013	-1.3619	
865	0.33049	-1.3638	
866	0.33085	-1.3661	
867	0.33122	-1.3688	
868	0.33159	-1.3718	
869	0.33197	-1.375	
870	0.33235	-1.3785	
871	0.33273	-1.3821	
872	0.33312	-1.3858	
873	0.33352	-1.3895	
874	0.33393	-1.3931	
875	0.33435	-1.3965	
876	0.33479	-1.3995	
